wv flux sim_flux error best_fit_flux
1.6606869209722133 0.0045829808768863434 0.014000884862647096 0.008696948156725394 0.004451917031932137
1.6617570224752667 0.0045118157089353225 0.004840764025023252 0.00869772129057077 0.0044806383146802605
1.6628271665291654 0.004544994291391078 -0.0035562563652881043 0.008698495032360844 0.00451316639638402
1.663897323078947 0.004578202864285277 -0.0008067705872390916 0.008699268649311854 0.004545704083512984
1.6649674535602577 0.004613045675737302 0.010538001704546631 0.008700074705906898 0.004579890437480483
1.666037580967183 0.004686727077042098 -0.010833199656337817 0.008701854071656029 0.004653108363951483
1.667107699943849 0.0047124996867959805 0.0027774929367612613 0.008702434761152109 0.00467892603489741
1.6681778131129585 0.0047379564968942104 0.010482395472277417 0.008703016338317415 0.004704467211465623
1.6692478971429703 0.004763457548362704 0.003121955953867806 0.008703598548625917 0.0047300889450714615
1.6703179975323934 0.0047890894761453895 0.014337276608553658 0.008704183517277102 0.00475587743777917
1.671388136608377 0.004814961369242949 -0.005775555365996423 0.008704773893163601 0.004781940269548099
1.6724582595959272 0.00484105202979766 0.010589178681170553 0.00870537029903883 0.004808258226704193
1.6735283610989806 0.004861360241737142 0.0008046188694464124 0.00870582527180561 0.004828870677427552
1.674598462602034 0.004869340132299808 -0.002091253857105654 0.00870598431272864 0.004837459743479129
1.6756685641050877 0.004832631827907379 0.005213647695163059 0.008705040483537615 0.00480247517410353
1.6767386595774716 0.004789794213329582 -0.005086254782444619 0.008703953984966616 0.004761403635820451
1.6778087523439327 0.004746862674529783 0.00018127918418775653 0.008702866889893059 0.004720125047990711
1.6788788164099615 0.004703898952662546 0.013267205717790158 0.008701779690908927 0.004678698854038644
1.6799488742314803 0.004660723567279142 -0.004904271331766052 0.00870068960767828 0.004636946179812329
1.6810189927899903 0.004608706420506276 0.0030782733209615124 0.008699381514373198 0.004586279466503579
1.6820891112653154 0.004556773390879772 -0.000837729075297348 0.008698077870827244 0.004535576354414292
1.683159195295327 0.00450515696284292 0.0006981745774434001 0.008696780017139681 0.004485068347086519
1.6842292774535965 0.004468060929856718 0.01919130533668735 0.008695835062330265 0.004448759793968386
1.6852993527473012 0.004465497308539512 0.010889758667036228 0.008695740848311848 0.004446452122113635
1.6863694159768206 0.004464235102531096 -0.0007170913646621811 0.008695672327211364 0.00444543509458328
1.6874394563267239 0.004462900983090215 0.013428596308891375 0.008695601924790424 0.004444359268319937
1.6885095228875746 0.004461342310902363 0.006880630128502173 0.008695525954156007 0.004443073497998397
1.6895796182815594 0.00446040786014419 -0.005361565200066561 0.008695464660258402 0.004442423516555556
1.690649690865246 0.004463755635387515 -0.0077174329529322155 0.008695508925139546 0.0044460514397777545
1.6917197486867648 0.004466959011693451 0.013868933512443287 0.008695548815706042 0.004449549300134347
1.6927898065082834 0.004470378059699728 0.0020621453145374287 0.008695587375639628 0.004453269108150112
1.693859864329802 0.004508888478770044 -0.00960900734520536 0.008696481362530664 0.004491109097928733
1.6949299145595464 0.004594486010913802 0.01258910684943915 0.008698527203515782 0.004574895575767839
1.6959999636451861 0.0046808466838510554 0.00345870428166506 0.008700580887728744 0.004659647478984345
1.697069977789269 0.0047683917707308 -0.0021935371887634846 0.008702661441868277 0.00474579643147236
1.6981400002798244 0.0048568763073214335 0.00519236097936851 0.008704772742965636 0.004833100001664338
1.6992100782020083 0.004892951481901275 0.004367116128667915 0.008705623454114075 0.004868766642647045
1.700280146289102 0.004777600019637988 -0.004891666962919357 0.008702756961198672 0.004753837535003499
1.7013501866390053 0.0047008549218506114 0.0032415087772115526 0.008700866270684683 0.004675953452185752
1.7024202235584391 0.004634948631186993 0.005088683583152337 0.008699231691850927 0.004611437725221086
1.7034902551727487 0.004588249223835447 -0.0018315698099480573 0.008698044851316918 0.004568235330311544
1.7045602867870582 0.004660824210172933 -0.0036705333470513158 0.00869977706110846 0.004642049529584496
1.7056303184013677 0.0047607208009216185 0.006403780955609817 0.008702184740118232 0.004743299676863817
1.7067003214280554 0.004706523552666255 0.008259380144218642 0.008700807777714826 0.004693046111669742
1.7077703093665355 0.004653547347706022 0.0023713183629210243 0.008699440833259799 0.004640906557498916
1.70884034739458 0.004862474586955718 0.018054541548330055 0.008704466327893715 0.00484279398831031
1.709910399110132 0.005201057693439273 -0.004156648826746195 0.008712627093125602 0.005172490538417904
1.7109804164011169 0.005438912389255688 -0.004839865567681115 0.008718354676768753 0.005403535645435654
1.7120504301330732 0.005331836468189174 0.0003423870912848811 0.008715720590628402 0.005296404478335092
1.7131204355414573 0.004954572403210977 0.017909540792685273 0.008706501790875001 0.004927692666743937
1.7141904347308745 0.004821720285330225 0.009588395266102258 0.008703239683265277 0.0047999817013469935
1.7152604052000213 0.005052470311340802 0.00852797448839422 0.008708806991968776 0.005025981528213944
1.7163303926662523 0.005347846972624053 0.010243121282418659 0.008715911749025158 0.005313683003697433
1.7174004181764564 0.00545479862619596 -0.006655444870173785 0.008718445215725587 0.005418933410631337
1.7184704310098193 0.005325611945197589 0.0003566030823595901 0.008715263894596975 0.0052948847306853435
1.71954042768318 0.005149217535208415 0.012219398634258798 0.008710955307441641 0.005122617065705915
1.7206104193735965 0.0050842902799587576 0.0018393487466512263 0.008709347693492842 0.00505780903503322
1.7216804073120766 0.0051635187097394935 0.019059883641059108 0.00871120272529278 0.005136073234938207
1.7227503891248046 0.0054090793955216985 0.004873592725670339 0.008717066524934002 0.005378415891961426
1.7238203683285467 0.005725904513284337 -0.0035594051623868157 0.008724639122513372 0.005688256591921742
1.7248903184594435 0.005966195830298553 0.013400291989729838 0.00873034660362507 0.005921144533669709
1.7259602627256596 0.006106039476854298 0.01678361982203674 0.00873364518196996 0.006055195758657091
1.727030268400687 0.006125435324655715 0.007042174704630169 0.00873405273349772 0.00607204751803672
1.7281002729219068 0.006057793529489119 0.008772027630850944 0.008732366275743938 0.006006246462036761
1.7291702433910536 0.0060134570330489644 0.014521594629004424 0.008731258482981586 0.005964997918414338
1.7302402118994265 0.005988149159469093 0.014656061542253067 0.008730603552678773 0.005942392253214737
1.7313101736341203 0.005989366928116 0.011977841845873069 0.008730569460793895 0.005944961538844374
1.7323801353688142 0.006091917839818827 0.007779077868168611 0.00873299539486994 0.006046347646904619
1.733450097103508 0.006143501532593508 0.015482787853476798 0.008734201941240327 0.00609747212246037
1.7345200376108536 0.006003853034007536 0.009194852667619944 0.008730791537191833 0.005959977616892057
1.7355899556754224 0.0058409092813570835 0.0008268330783607076 0.008726822267159817 0.005800443681040906
1.736659913075505 0.005843813610119113 0.01031416905147578 0.008726865406630853 0.005804267192121963
1.737729894912981 0.0058947158358498035 0.010093073559671192 0.008728056803754058 0.005852605399793459
1.7387998486648852 0.005853808433748074 0.01026470245489616 0.00872699607195612 0.005810256892616661
1.7398697929311013 0.005928260180820901 0.018803093455567813 0.008728701193821416 0.005884208696538057
1.7409397295262592 0.006225977298431798 -0.005655790153433946 0.008735787292027461 0.006178203083302942
1.742009664742345 0.006473021545219494 0.0030200890694299523 0.008741635491396744 0.006421070587379414
1.7430795653398619 0.006525747648163731 -0.013988316900666391 0.00874279384021304 0.0064717981203802144
1.7441494736283931 0.006611696349712068 -0.0005151551269355417 0.008744759234371341 0.00655442068267203
1.7452194292639434 0.006849127192057977 0.007666501569394211 0.008750419085369669 0.006787579869080962
1.7462893747396895 0.006796040950669004 0.009552821054259435 0.008749132713260926 0.006736416319300957
1.7473592928042583 0.006308293144316199 0.017151289201289992 0.008737398992717204 0.006261126027934702
1.748429210868827 0.005994158503492944 -0.009535315638666868 0.008729853969917652 0.005960906600929215
1.7494991289333959 0.006061467592975637 0.0043956335619614595 0.008731451317046323 0.006030393986320943
1.7505690423529106 0.006247022977062613 0.020386875980142785 0.008735778552847863 0.006206891132284531
1.7516389516838822 0.0066823772473030745 0.002258488132413284 0.00874605674869674 0.006631388386797376
1.7527088378694202 0.007281290929260717 0.009016575676554403 0.008760296053618737 0.007227146517222059
1.7537787122674284 0.007339718248555474 0.01659878817572383 0.008761664341708542 0.007293615458641661
1.754848630321415 0.006612901561093634 0.012747127300665451 0.008744254196396777 0.006579448770321383
1.755918559756323 0.006058061019563907 -0.007429496828010129 0.008730913816643983 0.0060301275612321
1.7569884544817853 0.006520722802372694 0.005978730575154242 0.008741937805267629 0.006488640477382778
1.75805834634599 0.007310282350397527 0.015282569826252267 0.00876068798108692 0.0072760681103366
1.759128238210195 0.007561357916639389 0.006697132340802216 0.00876658862282327 0.007527112606327918
1.7601981236051685 0.0070575850121325605 0.0002068833825203736 0.008754605751552666 0.007021316281766566
1.7612679805375506 0.006068007714977971 0.0026031448458634617 0.008730982422023815 0.0060377318983952126
1.762337854850961 0.005691479277248911 0.0037245422488261268 0.00872191520245745 0.00567321768126559
1.7634077668194867 0.006542622107064051 0.008277112092246425 0.00874213960265368 0.006527082374895954
1.7644776620161153 0.007729425164890694 0.018045857720201383 0.008770249287903145 0.007707921859674615
1.7655475364141235 0.008107295362902675 -0.012571338078000061 0.008779090525299012 0.008086248633656222
1.7666174057727608 0.007552487364831976 -0.0053296146196048005 0.008765904637434216 0.007537315700377207
1.7676872714378848 0.0065529566214829965 -0.009083942762065943 0.008742193761457387 0.0065384558934255
1.7687571371030089 0.00581213712954842 0.00767262622793323 0.008724512339869414 0.005793230373610169
1.7698270027681327 0.006195300523963748 0.006933564122846018 0.00873353876612665 0.006169376933066921
1.7708968318303842 0.0074942372409740705 0.008305366763172405 0.008764285974417805 0.0074650987024431174
1.7719666538332246 0.00839399290525415 -0.004192229003999985 0.008785413992331972 0.008376592256828325
1.7730365376183062 0.00841184355206819 -0.003439246851179115 0.008785623494368462 0.008418198959536844
1.7741064187846236 0.008339553114238979 0.013005696258933459 0.008783812797136996 0.008357738607093075
1.77517625825195 0.008468028616092905 0.004573417464371942 0.00878684769538026 0.008476606720646979
1.776246097719276 0.008276687098907737 -0.0027321552614203784 0.008782341827297608 0.008266904512434977
1.7773159371866023 0.007568056206682791 0.013256985238236828 0.008765591686229559 0.007539836246624045
1.7783857766539284 0.006870523688161367 0.008386076588212478 0.008749032020818498 0.006828157191589482
1.7794556161212547 0.0069780360218431765 0.026448078133652075 0.008751494979087865 0.006930747367999623
1.780525438432434 0.00791034745790939 0.013891140735703373 0.008773388113659183 0.007869414887071725
1.7815952429713589 0.009030678544726336 0.015243068149069987 0.008799539013071659 0.009006550187328674
1.7826650762962741 0.010029913267234417 0.01911811989044452 0.008822754820843931 0.010022176205150527
1.7837349271369534 0.010760484976946866 0.013903779358308253 0.008839683202481536 0.01076111519642171
1.784804756285889 0.01098508251120282 0.012967388985467423 0.008844834131738635 0.010993674562921307
1.7858745782887295 0.010565121277585757 0.01530771406119754 0.00883496192416496 0.010586420982726538
1.78694440029157 0.009814114395037099 0.014911366483178479 0.008817365823978797 0.009843139881445027
1.788014221597326 0.009220748266475487 0.009471921664899975 0.008803532309270553 0.009240189616073756
1.7890839912101304 0.008611868648800524 0.018079414555712728 0.008789365990106449 0.008609275906732073
1.7901537699901855 0.007591858742074481 0.006007554828126021 0.008765453688551255 0.007569885272499358
1.7912236033670486 0.006551594456695225 0.012792995493036658 0.00874091181297093 0.006520923243385546
1.792293428835656 0.006465691890867262 0.022482920237678356 0.008738798577770022 0.006436484083697695
1.793363233374581 0.007617343872994114 0.004612245735796954 0.008765817637038603 0.007593360308737326
1.7944330308451357 0.009038293451422744 -0.0005015676691099459 0.008798965541194134 0.00902447813804023
1.7955028179207153 0.009928831652513872 0.012432083414430485 0.008819501075738123 0.009932474388507207
1.796572604996295 0.010558683503910137 0.022302713501073428 0.00883397530998348 0.010578704089918414
1.7976423920718743 0.011065374527575961 0.022190278111703068 0.008845684529261178 0.011097089095279006
1.7987121558964636 0.010976297485464881 0.00888379091882258 0.008843490433478547 0.011022580630497176
1.7997819080470627 0.010609711924255829 0.0040403437023259995 0.008834832946950005 0.010670020493451907
1.800851710964061 0.010599899915244234 0.01573440217643008 0.008834586359474055 0.010666010275179756
1.801921526877678 0.010613606457484541 0.009101405657973793 0.008834878429962662 0.010680695279116982
1.8029912998887199 0.0103410131348158 0.013875858023141481 0.008828498574559729 0.010404903326462269
1.8040610695015242 0.009833603105268178 0.013334405889139976 0.008816688888849747 0.009887410951856327
1.8051308391143284 0.009169092397469814 -0.006598824986061225 0.008801219079942866 0.00920799893735394
1.8062006054524362 0.008516418519902806 -0.0003546095260212531 0.008786071823104414 0.008533462831494355
1.8072703576030353 0.0076831428032019065 0.025702751252437997 0.008766697680505984 0.007676605026498605
1.8083400986495202 0.006586090150681744 0.014125788789450623 0.008741017757373404 0.006564493012891454
1.8094098158774192 0.0059070306641059375 0.004229529950097737 0.008725042457590622 0.00588116723746314
1.810479561691497 0.006248796586600783 0.007856774281499324 0.008733003642245017 0.006229579053083531
1.8115493426803324 0.007354429652661081 -0.008603570623223561 0.008758739230994706 0.007348576460732529
1.8126191069803408 0.008741117560448104 0.005466032111503573 0.008790879028565556 0.008744758141819142
1.81368885913094 0.009959098645070205 0.008924143368455546 0.008818958519153458 0.009969034752436573
1.8147585988988482 0.010782758533094313 0.0017843366623291005 0.008837817621033214 0.010801614106616455
1.815828333587812 0.011309586932637504 0.003709003251404188 0.008849803532787089 0.011340680689227198
1.8168980389587794 0.011712772794331165 -0.004949094889748111 0.008858966027337802 0.011757437711859458
1.8179677387261832 0.01197818930343012 0.005406948466832036 0.008864981881195097 0.012034805320631599
1.8190375003329804 0.011971272065774747 0.008996043706707703 0.008864696414569485 0.012042313384598206
1.8201072592201666 0.01191599061782755 0.010948154695666443 0.00886328649411136 0.012003708805017721
1.8211769764480656 0.012135508434427717 0.006250636342192488 0.008868218284412682 0.012227872765846266
1.8222466936759645 0.012627500252706559 0.01659107978516273 0.008879440678348019 0.01270592459832143
1.8233164109038633 0.012966520560129584 0.026460332933068514 0.008887104254789864 0.013032615964195585
1.8243861281317624 0.01301753693077083 0.007097039638665621 0.008888168701985208 0.013085295335396716
1.8254558453596612 0.012801690952877802 0.013644478681984817 0.00888316054040388 0.012874742576049855
1.8265255368516478 0.012294196580076114 0.008116828776196853 0.008871418691187157 0.012364774238649933
1.8275952016997714 0.011931801360133413 0.0021918343816025483 0.008863054705202758 0.011988176196893642
1.8286649061805527 0.011737942686125557 0.026005741241796384 0.008858615816704468 0.011777033409726995
1.8297346347864907 0.01129568010424822 0.006700593922470516 0.008848397504600437 0.011321363572342076
1.830804341708963 0.01078081810556819 0.02179852615083005 0.008836566200759536 0.010789475885430241
1.8318740414763668 0.010073821153221325 0.0032744137265853287 0.008820359614562939 0.0100617664159785
1.8329437258400545 0.008872200432638049 0.019002787603244482 0.008792652573860596 0.00884298927756137
1.8340134077095647 0.007586736515518176 0.0015818260416269993 0.008762825590225993 0.007547116402078375
1.8350830550989035 0.007291583471770933 0.0004757875895892126 0.008755910243431224 0.007245845952270333
1.8361527115921832 0.00829907721936744 0.01191514702916506 0.008779212943955563 0.008252897851194685
1.8372224227382954 0.009650191595743375 -0.0036005093742697333 0.00881026359288666 0.00961547894063533
1.838292121243169 0.010665998408260524 -0.005839143892881397 0.008833402836833655 0.010651663522210803
1.8393617860912927 0.011422396164039292 0.017822129866132165 0.0088505491512964 0.011430530392691464
1.8404314509394166 0.01206015674686652 0.009510765181212518 0.008865002358907002 0.012089067613734043
1.8415011157875405 0.012451533016087016 0.014516221848824333 0.008873785916297935 0.012498853785897535
1.8425707806356642 0.012721572549997295 0.020419496928790595 0.008879733513936196 0.012783409007237165
1.843640445483788 0.013385111127320617 0.005004269611936044 0.00889471452884781 0.01345262184875339
1.8447100755614636 0.01422724212226962 1.2616907617580067e-05 0.008913774792903324 0.014294312144411252
1.8457796880349417 0.014586029718912107 -0.010090782486684484 0.008921775893520448 0.014653335491170615
1.8468493511339414 0.014433785231190656 0.02605791057333215 0.008918177079408783 0.01450504406611988
1.8479190273621118 0.014121026290317877 0.02142134042095902 0.008910980017795545 0.014200859631521165
1.848988676935837 0.013863603695995076 -0.0021030544053200796 0.008905041554738577 0.013957755830215047
1.8500583233736263 0.013813197521311212 0.008727888190691592 0.008903837262226042 0.013921996103933002
1.8511279533047498 0.013776325694729627 0.0054965825270706994 0.008903015653552086 0.013895259879351158
1.852197583235873 0.013124591357204883 0.010026159684120687 0.008888263307673215 0.01325534473024332
1.8532672131669965 0.011500596517986787 0.014066113491601633 0.008851361999820012 0.011647578096153514
1.8543368321020286 0.009155446902993275 0.00242958700479163 0.008797757254569978 0.009314782997514317
1.8554064271184312 0.007123302098342587 0.002187713151061945 0.008750931754661956 0.007289220849047881
1.8564760427411784 0.007042690583513662 -0.0036215964789973413 0.008748994308862003 0.007219263968938252
1.8575456840536866 0.009101818266874834 -0.004043005262378392 0.008796321966637734 0.009282103748812576
1.8586153087772397 0.01150178529507638 0.0014805885813245056 0.008851016129511618 0.011663485964618508
1.8596849212507176 0.012907240181336307 0.003869076960787945 0.008882663384130829 0.013042292420637577
1.8607545337241957 0.013548177834255106 0.012140796088137826 0.008896916189951016 0.013662610900825484
1.8618241461976737 0.014015723362869346 0.02427344257317522 0.008907350472030883 0.014113977452838426
1.8628937149110887 0.014259410565000482 0.020873538627157254 0.008912723441219125 0.014342396863757852
1.8639632750150497 0.014308539049492537 0.00932575810007854 0.008913704055644308 0.014378065284346899
1.8650328966837906 0.014290183247356565 0.02172105834244474 0.008913213570948186 0.01434834914692322
1.8661025177766872 0.01407492774340985 0.03149454244782602 0.008908282542000377 0.014121590726251671
1.8671721127930898 0.013647130059040892 0.013595146430487363 0.008898588964076758 0.013680757069935523
