wv flux sim_flux error best_fit_flux
0.6024954888205943 0.0013894795021476012 0.002864258828142228 0.0013881031035518879 2.3178242014116772e-05
0.6798774834927327 0.0010361263185448583 -0.002100245576029001 0.0013946820856929963 3.0058350746751707e-05
0.6860332854009485 0.0011237066357963762 0.0015807267896522778 0.00139554504708196 3.382883628621714e-05
0.6923358270925476 0.0011961020892441354 -0.0007805026274947137 0.0013962420989585389 3.7915820236901646e-05
0.6988053151311685 0.0012821396120391538 0.00076060119334891 0.001397074746459274 4.320760510570789e-05
0.7054351170328494 0.0013715384765060471 0.0005831229506387521 0.0013979349164810692 5.187151718533823e-05
0.7122254455746909 0.0014387666539865042 0.004403897601461493 0.0013985575958381526 7.118144864028445e-05
0.7191798349391124 0.0015249261046433608 0.00091541259170855 0.0013993634496748608 0.00011376137312035965
0.7263172675803488 0.0016827996273053737 0.0021332372125493137 0.00140088257264539 0.0001735629299788305
0.7336442399236287 0.0019196478951935248 0.0032251427897125795 0.001403172596455874 0.00024665405673496846
0.7411476866192758 0.0022421255138811453 0.003313798171008398 0.001406290343948524 0.0003592730553516854
0.74885536987851 0.002610050613721471 0.003636725224628305 0.0014098328965200168 0.0004941669320239576
0.7567638769608438 0.0028242559470990627 0.0030126292382410074 0.0014118178558079441 0.0005711031435116278
0.7648753543529766 0.0028884023191828446 0.0030777635340488744 0.0014123027104244639 0.0006076208335921002
0.7732105969224792 0.0030522101020368933 0.002117528420971241 0.0014137390488060209 0.000738577176726569
0.7817620224044457 0.0036378036606634456 0.004858611199007571 0.001419220473023781 0.0012249896736144365
0.7905437278998475 0.004843670431098945 0.006037389160506106 0.001430575666642851 0.002257889422558203
0.7995682990835928 0.0061592334858886506 0.005481441970386503 0.0014427477335123215 0.0034313010020594974
0.8088270674333922 0.007351263040004143 0.008355988120575242 0.0014535350478583056 0.0045644622724979374
0.8183418088138193 0.008584890522634801 0.008598484059833248 0.00146454967601314 0.005708333228676775
0.8281213710495698 0.009614869090652796 0.007815914292575228 0.0014734900303246493 0.006624319632355433
0.8381632252130756 0.01068949070172759 0.01106199284334078 0.0014826998994625985 0.00757890604237736
0.8484769844805841 0.011764889075800703 0.008430203150565857 0.0014918071902144372 0.00857220556200585
0.8590716213638419 0.012102928510985782 0.009058655336197078 0.0014941864496750504 0.008958589279051386
0.8699550721065319 0.012288587835869174 0.010885572254481026 0.0014951615654114157 0.009217250142200668
0.8811345691434173 0.013307682887622999 0.012727948589072696 0.0015034490710990548 0.010214855888340217
0.8926164059756965 0.014601283065138379 0.013698895925892692 0.001513940398534584 0.011423617680077226
0.904406016120264 0.01562576617601109 0.013598375200966597 0.0015218504578861241 0.012319224493870224
0.9165078232919142 0.017433200248336184 0.01826180718261839 0.001536250035397636 0.01395386291861745
0.9289255380224837 0.01982761117465213 0.021366750769424632 0.0015552563623536784 0.016271413948008507
0.9416800844295095 0.021227021089653044 0.020480873562854933 0.0015655940138642583 0.017682516429063745
0.954757922890753 0.022596846219464367 0.02388257565004717 0.0015754465882237593 0.018992966769070196
0.9681655972814562 0.025538747929268645 0.027667233618269237 0.0015976941269506756 0.021830904490732012
0.9819158207688717 0.028937690211414496 0.031099083309782744 0.0016229642350613018 0.025243478598671362
0.9959981927370158 0.030781144627246706 0.031267801614769254 0.0016355695681063184 0.027159935336631993
1.0104222177520512 0.031892252037510505 0.0323379246224823 0.0016423455643999538 0.02824937458569145
1.0251871827790946 0.033668153730206166 0.032272808448417845 0.0016540575092038397 0.02995581130988093
1.0402862726990512 0.035440885537250714 0.03205110276046768 0.001665494896882713 0.0316738448069258
1.0557198281924247 0.03670863095606015 0.039046109486224154 0.0016729693198625907 0.03288830770830444
1.0714898376307211 0.037744190870727924 0.03774151051144338 0.0016787169941859022 0.03389463679547899
1.0875877163842513 0.03684037658396809 0.03709875235646128 0.001670348950122879 0.033044051083692925
1.104006533920936 0.033754582212907044 0.035766371358890686 0.001646054096017137 0.02987809540616406
1.1207395248796759 0.03278186937311394 0.031749057328600526 0.0016371317594627934 0.02863642007151566
1.1377781502879116 0.03729227323552074 0.03816572301241215 0.0016677245732850884 0.032947354524722985
1.1551158212859407 0.043884204413176406 0.04259035654506746 0.001711920302222401 0.03960395745397688
1.1727403237610945 0.04570167690428032 0.04451551803848994 0.0017219241869012526 0.041504561992098385
1.190638059814936 0.045048031016069426 0.04453932498743858 0.0017148839260303697 0.04070203467128559
1.208795814444236 0.048355956074839494 0.04665579195950093 0.0017346238095286872 0.04373984990339315
1.2272038274968164 0.056897697372394626 0.058522349951874136 0.0017879038110221663 0.05206858343872755
1.2458459059263047 0.06975708388040827 0.07190909606363705 0.0018663929718687334 0.06507616221226276
1.2647046149609256 0.07709286084465583 0.08153583441660804 0.0019080366470676322 0.07293544969733544
1.2837703169412418 0.073484991361467 0.07583318040540854 0.0018825175107003878 0.0695709296038231
1.3030203614670928 0.06742105963265067 0.06579188007308286 0.001841989442952717 0.06335798886805945
1.3224455259176782 0.07106416754501711 0.07054636339833077 0.001860889430233004 0.06679980706866966
1.3420237208724042 0.0867310470419286 0.08745655217412802 0.0019502117908413957 0.08269894404076651
1.3617432290662455 0.10327548601386326 0.10421189299604017 0.0020400694857139884 0.09977650679320332
1.3815854704877728 0.1140594204412376 0.11334292933130341 0.002094760318235482 0.11104007467190882
1.4015354314822852 0.12049803910757616 0.12213996138650055 0.0021247150194244812 0.11785845767136098
1.4215790403804203 0.1259796522746088 0.12723867369037134 0.0021490847964280506 0.12366782707481618
1.4416998638203056 0.13155126244867962 0.13446960006191808 0.002173531194946506 0.12956051367553287
1.4618841077787084 0.13550056508892053 0.13796349565487795 0.0021893172799546654 0.13383342176560567
1.48211848098785 0.13669883712377712 0.13667717370803417 0.0021908542028400936 0.13524960964286772
1.502388965910429 0.13656277293484656 0.13667973656932442 0.002185540521427003 0.13514732992171322
1.522683417390884 0.1398572627365764 0.13883533807009402 0.0021976634666401196 0.13841928382224525
1.5429900557396328 0.14676694945219543 0.1464543197598387 0.0022277445832596457 0.14557802429710634
1.5632975284691646 0.15043961534727932 0.14629918764074618 0.0022413294082426934 0.14968788714826253
1.5835958392856337 0.1488767550875993 0.14857992675490253 0.0022290441940119804 0.14834342431870878
1.6038747981452106 0.14819042056942128 0.1489098285367133 0.0022212515101475384 0.14761510974067144
1.624125605649303 0.15109920076275443 0.1451147877015003 0.0022311445085698165 0.15050645027905563
1.6443401332022933 0.1552263083769799 0.1531950134445034 0.0022468168362830975 0.15477585101675953
1.6645096901720602 0.1569868378383015 0.1564372195852003 0.002250925787136812 0.15671699858497948
1.6846280471972848 0.15775859708738746 0.15811209772088522 0.002250229846819448 0.15739643502137135
1.70468907000548 0.16287165151052058 0.1585812754420361 0.002270121651191694 0.16224004207706863
1.724685462473476 0.17249305234258694 0.1715118934983604 0.0023107643275368777 0.17194362535937857
1.7446131940256195 0.1818884917021706 0.18256385716501672 0.0023493479678231236 0.18160569063022328
1.7644671558989597 0.1960855079587224 0.20132233084545506 0.002408825916536569 0.1956453013622987
1.7842419061924712 0.21800631612197707 0.21306082540671156 0.0025011004625931778 0.21698787432228875
1.803935659492312 0.24028612250791512 0.23567169624582948 0.0025924734873598206 0.23848489466728665
1.8235424368753346 0.25903989103521197 0.25894871279703086 0.0026669816816223477 0.25662829457879544
1.8430615360990812 0.2688317718828565 0.2730245549350298 0.0027027122812097433 0.2659223748720943
1.862488638859403 0.27977760461219875 0.28359874295634013 0.0027424226511001785 0.2766645862261107
1.8818222487451635 0.3162458503223204 0.31464236456937056 0.002885524653373401 0.31367319020457796
1.9010600597705933 0.35437926876748077 0.3514417718332457 0.003031639235741863 0.3529654585029948
1.9202005976983825 0.3557125428910733 0.35574616257009883 0.0030311232771327206 0.35527390780081536
1.9392416443150753 0.3516957495739729 0.3528278486372199 0.003010063291345908 0.35129508951786476
1.9581833135000246 0.367649962303332 0.36487556894579276 0.0030674478229999165 0.3672016308873595
1.9770226975996716 0.38185956010235195 0.37890524457049235 0.0031171999120335153 0.3821257284547682
1.995761500765532 0.38591974276735236 0.3908166008994258 0.00312767762298517 0.3874131285881195
2.0143957914273765 0.37664632270096715 0.3782846823744997 0.0030873054214794913 0.37934083205499197
2.032928379962473 0.3590113150624469 0.3531298074533598 0.003014451869002462 0.36234033172041835
2.051358218685731 0.3582792226815778 0.35621756529672965 0.0030068716153795133 0.3616507860691932
2.0696832675906767 0.37983455842464303 0.37473842434782534 0.0030901088114974867 0.3832485110467665
2.087905942681301 0.39832513360625943 0.3996243687130001 0.0031607250620988513 0.40193357021220427
2.106026115143801 0.40866639912918556 0.41014091835789274 0.0032000962864065937 0.4124233786988124
2.1240418389552427 0.41547775401428805 0.4115536386556953 0.003226234935551082 0.41950152496822324
2.1419552292740134 0.41821545607729876 0.42069591784497806 0.0032369964385224794 0.42241789805105445
2.159767139031436 0.4207448193744757 0.4214588446630048 0.003247037890997806 0.4249643812985825
2.1774776251839576 0.42394753885903763 0.42321300345062557 0.0032596502902415094 0.4280948795148237
2.19508556156567 0.4235918251580428 0.4242891079170055 0.0032585588916928267 0.4274178567263929
2.2125931264332297 0.4234036657940267 0.42218728134535416 0.003258122247207008 0.42707567232997257
2.2300012929932276 0.4255921163148944 0.4284977265873011 0.0032666789516264745 0.42972013855398195
2.2473102941785776 0.42735086151757185 0.42431280028810786 0.0032737319909591496 0.43223349464050187
2.2645208970082105 0.4207724936699228 0.42101516698141855 0.0032495465501822707 0.4261803031325776
2.2816341921219743 0.3999233821324414 0.40472019428991846 0.0031708144322381356 0.4051335137253763
2.298650096643734 0.3892891040932226 0.38917595605384053 0.0031304427191841634 0.39381593670704207
2.315569618251327 0.403315003881277 0.40303542788832014 0.0031844518310606413 0.4078805575020432
2.3323939660540756 0.4157114857933692 0.416452560333693 0.003231731541293812 0.42089502737475804
2.3491243923001606 0.4145493771827761 0.4223154324859796 0.0032274470978752765 0.419917352971949
2.3657615906609704 0.40996998447144006 0.41345194050321094 0.003210316635038076 0.4150056239636198
2.3823062444740035 0.41004094866759666 0.40977912929205784 0.0032109681799349144 0.4148174715911837
2.3987595082587663 0.4102326335786521 0.41156487289890986 0.0032118284034277165 0.4147886251677707
2.4151221488343175 0.40525994635094154 0.40893857754022694 0.0031928114302784845 0.4095791272510759
2.4313954266178426 0.3967619210739757 0.40100452667464054 0.0031602473372813918 0.4010324889826165
2.4475801092301963 0.3931294243716733 0.3933532826531776 0.0031462194085612807 0.397755422677135
2.463676971072206 0.39602650595644406 0.3959882789722236 0.0031571352922298967 0.4012254912708826
2.47968692719503 0.40021202910808584 0.40467126067026643 0.0031728057772681464 0.4056943705817842
2.4956105748724764 0.40567052942128395 0.40315393228548585 0.0031933102143260083 0.41131530813236455
2.5114494369599494 0.4099364596712309 0.4094643670674805 0.003209261741142165 0.41576960966247506
2.527204771158299 0.4108641707695526 0.4147581875973778 0.003212551458598479 0.41666600591912156
2.542877441856084 0.40905162263102024 0.4108498700915278 0.0032054577488383564 0.4146537181363269
2.558468269541018 0.4075615531569712 0.40531034252485526 0.003199626149553184 0.41306103820855317
2.5739782471830406 0.4071361326205857 0.4048381174834092 0.0031978673854362698 0.4127019394512512
2.589407280290567 0.40592418040127054 0.40459721163426926 0.003193061060647381 0.41143120939511774
2.6047567598090517 0.4057920636302853 0.4048095510896807 0.003192409569743467 0.4111904197735163
2.6200282638986985 0.4049744995826333 0.40806800087494116 0.0031891359667555667 0.41028535464513344
2.6352229943268437 0.40202538497917273 0.3989411245141133 0.0031773626769140565 0.40722173498317327
2.6503413808814007 0.40032757249797096 0.4005396091357974 0.0031704031808691383 0.4055586495620325
2.66538253346005 0.3992695519978428 0.39905994053783084 0.0031658538830454633 0.4047452766987657
2.6803496650198917 0.39882636068165483 0.40071208768612515 0.003163620131726147 0.40455751126642214
2.695243719244958 0.39959312409890546 0.40413727846400055 0.003166003991905521 0.40545530811011027
2.710063686093753 0.40022899277885965 0.39885803712190454 0.003167906407426646 0.40611125712938095
2.724811209338052 0.3988122782199666 0.40451893066901046 0.0031619592929701384 0.40462925086981566
2.7394885399142876 0.3981373665358193 0.3997289628002149 0.0031589559103230727 0.4039866499070318
2.754094632753382 0.39450341426301544 0.3893042495966208 0.0031447537706049676 0.4004524659230411
2.768630360296619 0.385327534741486 0.3853974164392959 0.0031093125685097154 0.3911855819182892
2.7830984325408172 0.37844380015621953 0.37824366608007315 0.0030825279812424626 0.38417720863556437
2.797497053103017 0.3793196020718626 0.3791120238878117 0.0030855232138724408 0.38523371236335135
2.8118287945746734 0.3805534632727533 0.38112052435149424 0.0030897862461330946 0.38659354462743245
2.8260946281340553 0.378988261680923 0.3788918689009669 0.003083275830781393 0.38478794681277867
2.840292923649972 0.3778729670981263 0.37519309524426137 0.003078531004081757 0.3834420694529353
2.8544279691541887 0.37798862816610773 0.3848034132516269 0.003078558520445583 0.3835942364288658
2.868497040287455 0.37593145403090505 0.3747091089627894 0.003070191436774136 0.3814979267375079
2.8825035654031486 0.37148148852939605 0.3702194304238713 0.0030526316360591126 0.3768306179354465
2.896446389084157 0.36580505144477554 0.36239121753412123 0.0030303556603465086 0.3709780063714916
2.910327357438576 0.3609948880157092 0.36089915235953884 0.003011389960919594 0.36623745113209316
2.924146689012361 0.3576217099191927 0.35857587094199544 0.002997962982426807 0.3630526765991293
2.9379052357937416 0.35364927903131244 0.35400961341199816 0.0029821230447357157 0.3590576715517601
2.95160350493295 0.351960798578671 0.35044918897362115 0.002975080916175832 0.35723547649565524
2.965242475444429 0.3533070062981895 0.3570353984409959 0.002979786846324666 0.3584242042354227
2.9788223048867866 0.3534888219497622 0.3519486393279802 0.0029799353963536144 0.3582131915113809
2.992344325678075 0.3525848195035907 0.3554129236980038 0.0029758924977641445 0.3568530063326346
3.005807793691948 0.3523743712278841 0.3551295378486754 0.0029745578966524984 0.35648095200245733
3.019216065360288 0.35240625810454856 0.35594499873756225 0.0029741716441818826 0.3565733987188289
3.0325658343058235 0.3514074984779 0.35069868033261214 0.002969828797770907 0.3556047128690434
3.0458614553106824 0.34892809577071876 0.34932725599115194 0.0029598197322186917 0.35308988407845227
3.059100674139672 0.3447481924097384 0.34572901499501524 0.0029432959563693247 0.3487632119305896
3.0722859015842294 0.3384680782325614 0.3380917926462175 0.0029187681925308866 0.34227974551286483
3.0854178490718764 0.326036949236718 0.32386892469828654 0.0028700935623963055 0.3295973284937836
3.0984947055772456 0.31757134523810227 0.3219259586787192 0.0028365127452238286 0.3209845983745854
3.111520205292857 0.3247286782082332 0.3218973549078185 0.002864156531088545 0.3284909607435227
3.1244928282201463 0.3324668409013643 0.33166093331731056 0.002893731155724018 0.3366897984093314
3.1374130944890766 0.33295703515643693 0.3347710102294433 0.0028950280384008637 0.33739302653668246
3.1502832438171673 0.33101352537513495 0.3320144490492186 0.002887022180921425 0.33555652578783285
3.163101985773601 0.3287930137470256 0.3263198459087828 0.0028779771663793472 0.3334417452111062
3.1758704835503755 0.32724862306229524 0.33034368982308615 0.0028715484199433846 0.3319752544235702
3.188590132675141 0.3268841901595712 0.3259522079909811 0.002869709218730117 0.33165490773710005
3.2012600061213927 0.32653762480341153 0.32731927339574407 0.002867930034713312 0.3312884040490081
3.2138806635609387 0.32559034680547194 0.3206294362033528 0.002863811049182794 0.3302199251927718
3.226454101322288 0.32471453318176025 0.32005112742056263 0.0028599558902842525 0.32913491811710355
3.2389804170599117 0.32522758988728845 0.3260670343283341 0.0028614892168336713 0.32940060358063405
3.251457657503403 0.3268439472901653 0.3290752381988873 0.0028673056607659564 0.33073813997013807
3.2638887465820927 0.32749717534885137 0.3310191146545534 0.0028693657286906157 0.3309580863078346
3.276274225883945 0.3272559113072496 0.3280459932339053 0.002867967863747569 0.3301532614389687
3.2886142437004127 0.3272100653685321 0.3290502393771131 0.002867360535165609 0.3295799396663715
3.3009073422396082 0.32679958384605856 0.3316855429248623 0.002865365429114725 0.3288545045803057
3.31315592083175 0.32507793012634845 0.32029006446407376 0.002858362383089078 0.327232948012369
3.325360438009411 0.3202673155707398 0.31761130238030516 0.0028394741193180605 0.32298098926445823
3.3375213160109096 0.31125587575170316 0.31410374327781754 0.0028041829883217683 0.31462898283459545
3.3496377796074595 0.3032469992379405 0.29878106773710966 0.002772643033165932 0.30694872436416826
3.361710695541752 0.300632680388612 0.3021049653575599 0.002762148058804647 0.3042958825224356
3.37374099250827 0.30112408504037375 0.2931103411619053 0.0027637357896515427 0.3046819255318863
3.3857293406967894 0.30212273638968207 0.30065760002048697 0.0027672341212809605 0.3055308320733029
3.397675745931313 0.30389734956987424 0.3009625605180065 0.002773778356767546 0.3070280665467311
3.409580695210876 0.30739767721719424 0.3074224758446027 0.0027870518506902422 0.31020143084354457
3.421443390522118 0.3107451768038168 0.3135241773390674 0.002799680614655944 0.31308708435552557
3.433265326335338 0.31274777883783933 0.31346175212294536 0.0028070274290179953 0.31449371046113167
3.4450468948571373 0.3152429080956694 0.3169226681701278 0.002816286729227974 0.3165558996648684
3.4567885232066344 0.31857529347801505 0.32027948839984555 0.0028288030287167243 0.3196298177854375
3.4684903780444096 0.3201393984479269 0.3173610750564095 0.002834469722753971 0.3209503788643333
3.4801529833544786 0.3195566380590191 0.32085788626051154 0.0028318255104795454 0.3201113506619697
3.4917766623198987 0.3204085309376963 0.31792084406134513 0.0028347295058307495 0.3207258205721567
3.503361025889228 0.3237176239960684 0.3275958159911365 0.0028471079557866527 0.32388801151529295
3.514906891066118 0.3262285212397408 0.3250996857197236 0.0028563441495806957 0.32631865262709103
3.526415010814973 0.3277506735566351 0.327455664769316 0.0028617703173661373 0.3277630366274579
3.5378853751005863 0.32949335198248686 0.3312463257442419 0.0028680556017364185 0.329425192722093
3.5493184210160846 0.3313258146718109 0.32910627362266964 0.002874706845398512 0.3312237058613702
3.5607145919944303 0.3315187853944413 0.3285526777946422 0.002875144193888154 0.33149354068636055
3.57207395043186 0.3281447470118259 0.32769682508629705 0.002862017269760443 0.3283561279300998
3.5833968633749675 0.3213578846907281 0.3227621198410183 0.002835848179524384 0.32197744830666225
